i,ecg
1,169
2,170
3,329
4,331
5,321
6,321
7,321
8,319
9,318
10,316
11,316
12,317
13,321
14,322
15,325
16,328
17,331
18,336
19,337
20,338
21,339
22,342
23,345
24,349
25,350
26,351
27,350
28,346
29,341
30,335
31,331
32,326
33,323
34,319
35,313
36,310
37,308
38,311
39,311
40,313
41,313
42,314
43,315
44,316
45,317
46,313
47,314
48,321
49,358
50,426
51,507
52,570
53,575
54,513
55,422
56,336
57,287
58,281
59,293
60,307
61,316
62,316
63,311
64,308
65,307
66,309
67,312
68,313
69,313
70,311
71,309
72,313
73,315
74,320
75,323
76,324
77,321
78,321
79,321
80,324
81,327
82,328
83,329
84,329
85,330
86,332
87,333
88,334
89,335
90,337
91,338
92,341
93,342
94,342
95,344
96,345
97,347
98,347
99,348
100,347
101,346
102,344
103,344
104,345
105,345
106,347
107,347
108,344
109,343
110,341
111,340
112,337
113,334
114,329
115,325
116,323
117,323
118,321
119,321
120,316
121,316
122,318
123,318
124,321
125,321
126,321
127,321
128,319
129,323
130,322
131,324
132,324
133,321
134,320
135,324
136,324
137,327
138,327
139,325
140,327
141,328
142,330
143,331
144,326
145,325
146,322
147,322
148,324
149,325
150,322
151,322
152,323
153,323
154,323
155,323
156,323
157,323
158,319
159,320
160,319
161,320
162,316
163,317
164,318
165,321
166,323
167,323
168,324
169,326
170,330
171,334
172,334
173,334
174,334
175,337
176,341
177,346
178,346
179,347
180,344
181,344
182,342
183,340
184,333
185,324
186,317
187,311
188,309
189,309
190,306
191,307
192,306
193,309
194,310
195,313
196,310
197,311
198,314
199,313
200,312
201,319
202,348
203,411
204,490
205,559
206,571
207,518
208,430
209,344
210,291
211,279
212,289
213,301
214,310
215,312
216,311
217,307
218,306
219,305
220,304
221,306
222,307
223,307
224,309
225,311
226,312
227,314
228,314
229,316
230,316
231,319
232,321
233,321
234,322
235,323
236,325
237,326
238,327
239,329
240,329
241,331
242,331
243,332
244,331
245,333
246,334
247,337
248,341
249,343
250,345
251,346
252,340
253,340
254,337
255,342
256,344
257,346
258,345
259,344
260,342
261,342
262,342
263,342
264,337
265,336
266,331
267,331
268,328
269,329
270,325
271,325
272,321
273,319
274,316
275,317
276,317
277,323
278,323
279,327
280,325
281,325
282,323
283,326
284,324
285,321
286,322
287,322
288,325
289,330
290,330
291,331
292,327
293,326
294,323
295,326
296,326
297,327
298,329
299,330
300,326
301,326
302,322
303,324
304,324
305,328
306,328
307,325
308,323
309,322
310,320
311,322
312,322
313,324
314,323
315,322
316,320
317,322
318,322
319,325
320,327
321,330
322,333
323,334
324,335
325,338
326,338
327,343
328,346
329,349
330,351
331,353
332,349
333,347
334,346
335,340
336,336
337,330
338,324
339,320
340,316
341,314
342,311
343,311
344,313
345,316
346,315
347,316
348,312
349,313
350,317
351,317
352,315
353,318
354,337
355,390
356,467
357,543
358,579
359,545
360,463
361,372
362,307
363,285
364,292
365,306
366,314
367,317
368,316
369,313
370,311
371,311
372,311
373,313
374,309
375,313
376,311
377,313
378,311
379,313
380,315
381,320
382,323
383,327
384,327
385,329
386,327
387,329
388,325
389,330
390,331
391,334
392,334
393,334
394,331
395,336
396,338
397,342
398,343
399,344
400,344
401,344
402,345
403,346
404,346
405,348
406,348
407,350
408,350
409,350
410,347
411,348
412,345
413,343
414,342
415,340
416,340
417,343
418,338
419,337
420,332
421,331
422,328
423,327
424,324
425,324
426,322
427,326
428,325
429,324
430,325
431,325
432,325
433,327
434,326
435,329
436,329
437,329
438,327
439,326
440,327
441,328
442,327
443,332
444,330
445,330
446,332
447,331
448,330
449,329
450,327
451,329
452,330
453,332
454,331
455,327
456,326
457,327
458,327
459,329
460,327
461,327
462,327
463,329
464,327
465,325
466,324
467,327
468,326
469,327
470,323
471,324
472,324
473,328
474,331
475,333
476,336
477,338
478,339
479,342
480,344
481,347
482,349
483,351
484,350
485,351
486,352
487,352
488,349
489,344
490,334
491,326
492,320
493,317
494,315
495,317
496,313
497,315
498,315
499,317
500,316
501,317
502,317
503,318
504,322
505,321
506,322
507,325
508,352
509,412
510,490
511,557
512,575
513,522
514,435
515,347
516,296
517,281
518,292
519,306
520,316
521,318
522,317
523,313
524,310
525,309
526,310
527,311
528,312
529,314
530,313
531,314
532,313
533,315
534,317
535,319
536,320
537,322
538,323
539,322
540,323
541,323
542,324
543,326
544,328
545,330
546,333
547,335
548,336
549,333
550,333
551,336
552,338
553,340
554,342
555,340
556,338
557,338
558,339
559,341
560,342
561,344
562,344
563,345
564,344
565,345
566,344
567,345
568,342
569,342
570,337
571,334
572,332
573,329
574,327
575,324
576,323
577,321
578,321
579,322
580,318
581,317
582,318
583,315
584,319
585,318
586,322
587,326
588,326
589,324
590,323
591,321
592,321
593,325
594,324
595,325
596,325
597,326
598,325
599,326
600,325
601,327
602,328
603,328
604,328
605,325
606,323
607,322
608,320
609,322
610,321
611,323
612,323
613,320
614,321
615,320
616,322
617,323
618,323
619,323
620,320
621,318
622,316
623,318
624,321
625,326
626,330
627,332
628,333
629,334
630,337
631,343
632,348
633,350
634,352
635,351
636,348
637,345
638,342
639,336
640,331
641,324
642,319
643,312
644,309
645,307
646,311
647,312
648,316
649,316
650,314
651,316
652,316
653,318
654,320
655,315
656,315
657,319
658,342
659,400
660,480
661,552
662,581
663,536
664,449
665,355
666,298
667,280
668,291
669,305
670,314
671,316
672,315
673,311
674,309
675,308
676,309
677,312
678,313
679,315
680,316
681,316
682,318
683,316
684,319
685,319
686,320
687,322
688,324
689,325
690,325
691,323
692,325
693,326
694,327
695,330
696,332
697,335
698,338
699,339
700,338
701,337
702,339
703,341
704,342
705,341
706,340
707,343
708,345
709,345
710,345
711,340
712,340
713,341
714,343
715,343
716,345
717,345
718,345
719,340
720,339
721,336
722,333
723,333
724,330
725,327
726,327
727,325
728,328
729,325
730,324
731,321
732,322
733,324
734,327
735,327
736,327
737,324
738,324
739,326
740,328
741,324
742,328
743,327
744,330
745,331
746,332
747,329
748,329
749,330
750,331
751,330
752,329
753,327
754,326
755,325
756,326
757,323
758,323
759,321
760,320
761,321
762,322
763,325
764,327
765,327
766,324
767,321
768,321
769,319
770,321
771,322
772,325
773,325
774,325
775,321
776,321
777,321
778,322
779,319
780,323
781,323
782,330
783,333
784,339
785,339
786,341
787,342
788,344
789,348
790,353
791,354
792,356
793,354
794,350
795,346
796,342
797,336
798,331
799,324
800,320
801,314
802,313
803,311
804,314
805,314
806,314
807,314
808,315
809,315
810,318
811,316
812,316
813,316
814,319
815,334
816,384
817,454
818,532
819,576
820,550
821,469
822,374
823,307
824,281
825,290
826,307
827,315
828,318
829,316
830,314
831,309
832,308
833,307
834,308
835,311
836,314
837,315
838,316
839,317
840,319
841,321
842,325
843,322
844,323
845,323
846,325
847,325
848,327
849,327
850,329
851,333
852,334
853,335
854,337
855,336
856,337
857,339
858,340
859,340
860,342
861,341
862,344
863,342
864,344
865,340
866,341
867,338
868,341
869,339
870,338
871,337
872,341
873,341
874,344
875,344
876,341
877,340
878,339
879,336
880,335
881,330
882,331
883,328
884,327
885,324
886,323
887,321
888,325
889,324
890,325
891,325
892,326
893,327
894,331
895,330
896,333
897,331
898,334
899,333
900,335
901,335
902,336
903,335
904,333
905,330
906,330
907,330
908,333
909,334
910,337
911,337
912,337
913,333
914,332
915,330
916,330
917,328
918,326
919,322
920,326
921,327
922,330
923,331
924,327
925,325
926,325
927,327
928,327
929,324
930,324
931,321
932,321
933,323
934,324
935,326
936,327
937,327
938,329
939,327
940,329
941,329
942,326
943,325
944,326
945,325
946,328
947,331
948,335
949,338
950,342
951,343
952,344
953,346
954,347
955,349
956,352
957,353
958,356
959,357
960,356
961,353
962,349
963,341
964,337
965,329
966,326
967,324
968,321
969,317
970,317
971,314
972,315
973,318
974,318
975,316
976,318
977,318
978,319
979,320
980,323
981,331
982,369
983,433
984,513
985,574
986,579
987,512
988,418
989,330
990,284
991,279
992,296
993,311
994,320
995,317
996,312
997,306
998,306
999,307
1000,309
1001,310
1002,310
1003,310
1004,308
1005,308
1006,311
1007,313
1008,318
1009,322
1010,323
1011,322
1012,320
1013,320
1014,321
1015,323
1016,324
1017,323
1018,326
1019,326
1020,329
1021,331
1022,333
1023,334
1024,335
1025,334
1026,337
1027,336
1028,337
1029,337
1030,335
1031,337
1032,337
1033,337
1034,337
1035,335
1036,337
1037,335
1038,334
1039,335
1040,335
1041,335
1042,336
1043,335
1044,333
1045,330
1046,328
1047,325
1048,323
1049,321
1050,320
1051,321
1052,318
1053,316
1054,315
1055,313
1056,313
1057,315
1058,316
1059,316
1060,317
1061,317
1062,315
1063,319
1064,320
1065,321
1066,323
1067,324
1068,324
1069,324
1070,324
1071,321
1072,321
1073,323
1074,323
1075,323
1076,323
1077,323
1078,323
1079,323
1080,323
1081,319
1082,317
1083,320
1084,321
1085,323
1086,325
1087,321
1088,319
1089,315
1090,315
1091,315
1092,317
1093,320
1094,320
1095,323
1096,321
1097,323
1098,321
1099,319
1100,317
1101,315
1102,315
1103,317
1104,318
1105,319
1106,319
1107,316
1108,314
1109,316
1110,318
1111,317
1112,318
1113,317
1114,316
1115,318
1116,317
1117,319
1118,318
1119,317
1120,316
1121,314
1122,316
1123,318
1124,321
1125,325
1126,330
1127,332
1128,335
1129,335
1130,332
1131,335
1132,338
1133,342
1134,345
1135,347
1136,347
1137,344
1138,342
1139,338
1140,331
1141,326
1142,321
1143,316
1144,313
1145,309
1146,307
1147,309
1148,310
1149,311
1150,311
1151,311
1152,307
1153,312
1154,312
1155,313
1156,313
1157,311
1158,317
1159,356
1160,422
1161,503
1162,561
1163,561
1164,494
1165,405
1166,323
1167,281
1168,275
1169,289
1170,301
1171,306
1172,307
1173,302
1174,301
1175,300
1176,302
1177,301
1178,302
1179,302
1180,303
1181,304
1182,305
1183,307
1184,307
1185,309
1186,311
1187,312
1188,314
1189,316
1190,316
1191,319
1192,317
1193,319
1194,319
1195,321
1196,324
1197,324
1198,324
1199,325
1200,324
1201,327
1202,328
1203,330
1204,332
1205,335
1206,336
1207,336
1208,333
1209,332
1210,331
1211,332
1212,333
1213,334
1214,335
1215,336
1216,333
1217,336
1218,335
1219,334
1220,332
1221,331
1222,327
1223,326
1224,324
1225,326
1226,325
1227,323
1228,320
1229,317
1230,315
1231,314
1232,315
1233,315
1234,315
1235,317
1236,318
1237,319
1238,315
1239,316
1240,315
1241,316
1242,320
1243,322
1244,324
1245,324
1246,320
1247,321
1248,320
1249,324
1250,325
1251,326
1252,323
1253,324
1254,321
1255,320
1256,319
1257,320
1258,320
1259,322
1260,321
1261,323
1262,321
1263,320
1264,319
1265,320
1266,320
1267,320
1268,317
1269,317
1270,318
1271,321
1272,321
1273,324
1274,322
1275,318
1276,318
1277,318
1278,318
1279,320
1280,318
1281,321
1282,321
1283,322
1284,318
1285,319
1286,316
1287,319
1288,319
1289,320
1290,320
1291,321
1292,320
1293,318
1294,321
1295,320
1296,322
1297,322
1298,322
1299,320
1300,323
1301,323
1302,323
1303,321
1304,321
1305,324
1306,322
1307,325
1308,326
1309,330
1310,334
1311,337
1312,339
1313,340
1314,344
1315,348
1316,352
1317,354
1318,355
1319,356
1320,353
1321,353
1322,348
1323,343
1324,336
1325,331
1326,324
1327,320
1328,317
1329,318
1330,319
1331,320
1332,317
1333,318
1334,319
1335,320
1336,322
1337,322
1338,323
1339,322
1340,320
1341,323
1342,353
1343,415
1344,493
1345,558
1346,569
1347,516
1348,431
1349,350
1350,301
1351,292
1352,298
1353,313
1354,320
1355,321
1356,318
1357,314
1358,312
1359,315
1360,316
1361,321
1362,320
1363,321
1364,317
1365,318
1366,319
1367,321
1368,322
1369,325
1370,323
1371,326
1372,326
1373,328
1374,331
1375,333
1376,332
1377,336
1378,334
1379,336
1380,332
1381,333
1382,335
1383,340
1384,343
1385,347
1386,346
1387,349
1388,349
1389,352
1390,349
1391,347
1392,344
